# Distribution browse_dist.dat
#
# total bib_ids with non-zero counts = 1457000
# total bib_ids with any usage data = 2345788
# total of all counts = 6305446
#
# col1 = count
# col2 = num_bib_ids
# col3 = fraction of total bib_ids with non-zero counts for this metric
# col4 = fraction of all bib_ids with any usage data
# col5 = example bib_id (prepend: https://newcatalog.library.cornell.edu/catalog/)
1	591754	0.4061455	0.2522624	-
2	330469	0.2268147	0.1408776	-
3	166679	0.1143988	0.0710546	-
4	99255	0.0681229	0.0423120	-
5	61406	0.0421455	0.0261771	-
6	42969	0.0294914	0.0183175	-
7	29889	0.0205141	0.0127416	-
8	22706	0.0155841	0.0096795	-
9	16913	0.0116081	0.0072099	-
10	13490	0.0092588	0.0057507	-
11	10277	0.0070535	0.0043810	-
12	8567	0.0058799	0.0036521	-
13	6904	0.0047385	0.0029431	-
14	5905	0.0040528	0.0025173	-
15	4829	0.0033143	0.0020586	-
16	4170	0.0028620	0.0017777	-
17	3557	0.0024413	0.0015163	-
18	3016	0.0020700	0.0012857	-
19	2746	0.0018847	0.0011706	-
20	2548	0.0017488	0.0010862	-
21	2169	0.0014887	0.0009246	-
22	1816	0.0012464	0.0007742	-
23	1544	0.0010597	0.0006582	-
24	1514	0.0010391	0.0006454	-
25	1318	0.0009046	0.0005619	-
26	1220	0.0008373	0.0005201	-
27	1149	0.0007886	0.0004898	-
28	1006	0.0006905	0.0004289	-
29	912	0.0006259	0.0003888	-
30	875	0.0006005	0.0003730	-
31	737	0.0005058	0.0003142	-
32	732	0.0005024	0.0003120	-
33	641	0.0004399	0.0002733	-
34	549	0.0003768	0.0002340	-
35	519	0.0003562	0.0002212	-
36	518	0.0003555	0.0002208	-
37	498	0.0003418	0.0002123	-
38	454	0.0003116	0.0001935	-
39	419	0.0002876	0.0001786	-
40	396	0.0002718	0.0001688	-
41	361	0.0002478	0.0001539	-
42	322	0.0002210	0.0001373	-
43	330	0.0002265	0.0001407	-
44	297	0.0002038	0.0001266	-
45	253	0.0001736	0.0001079	-
46	263	0.0001805	0.0001121	-
47	250	0.0001716	0.0001066	-
48	244	0.0001675	0.0001040	-
49	236	0.0001620	0.0001006	-
50	202	0.0001386	0.0000861	-
51	199	0.0001366	0.0000848	-
52	170	0.0001167	0.0000725	-
53	187	0.0001283	0.0000797	-
54	189	0.0001297	0.0000806	-
55	152	0.0001043	0.0000648	-
56	169	0.0001160	0.0000720	-
57	161	0.0001105	0.0000686	-
58	148	0.0001016	0.0000631	-
59	125	0.0000858	0.0000533	-
60	138	0.0000947	0.0000588	-
61	130	0.0000892	0.0000554	-
62	133	0.0000913	0.0000567	-
63	120	0.0000824	0.0000512	-
64	115	0.0000789	0.0000490	-
65	108	0.0000741	0.0000460	-
66	98	0.0000673	0.0000418	-
67	96	0.0000659	0.0000409	-
68	100	0.0000686	0.0000426	-
69	88	0.0000604	0.0000375	-
70	95	0.0000652	0.0000405	-
71	81	0.0000556	0.0000345	-
72	79	0.0000542	0.0000337	-
73	90	0.0000618	0.0000384	-
74	71	0.0000487	0.0000303	-
75	56	0.0000384	0.0000239	-
76	63	0.0000432	0.0000269	-
77	76	0.0000522	0.0000324	-
78	83	0.0000570	0.0000354	-
79	54	0.0000371	0.0000230	-
80	66	0.0000453	0.0000281	-
81	72	0.0000494	0.0000307	-
82	60	0.0000412	0.0000256	-
83	52	0.0000357	0.0000222	-
84	72	0.0000494	0.0000307	-
85	52	0.0000357	0.0000222	-
86	54	0.0000371	0.0000230	-
87	51	0.0000350	0.0000217	-
88	50	0.0000343	0.0000213	-
89	51	0.0000350	0.0000217	-
90	44	0.0000302	0.0000188	-
91	50	0.0000343	0.0000213	-
92	51	0.0000350	0.0000217	-
93	45	0.0000309	0.0000192	-
94	42	0.0000288	0.0000179	-
95	36	0.0000247	0.0000153	-
96	41	0.0000281	0.0000175	-
97	40	0.0000275	0.0000171	-
98	41	0.0000281	0.0000175	-
99	41	0.0000281	0.0000175	-
100	41	0.0000281	0.0000175	-
101	31	0.0000213	0.0000132	-
102	24	0.0000165	0.0000102	-
103	33	0.0000226	0.0000141	-
104	39	0.0000268	0.0000166	-
105	30	0.0000206	0.0000128	-
106	28	0.0000192	0.0000119	-
107	31	0.0000213	0.0000132	-
108	34	0.0000233	0.0000145	-
109	21	0.0000144	0.0000090	-
110	32	0.0000220	0.0000136	-
111	26	0.0000178	0.0000111	-
112	22	0.0000151	0.0000094	-
113	22	0.0000151	0.0000094	-
114	30	0.0000206	0.0000128	-
115	30	0.0000206	0.0000128	-
116	27	0.0000185	0.0000115	-
117	22	0.0000151	0.0000094	-
118	22	0.0000151	0.0000094	-
119	29	0.0000199	0.0000124	-
120	27	0.0000185	0.0000115	-
121	24	0.0000165	0.0000102	-
122	23	0.0000158	0.0000098	-
123	25	0.0000172	0.0000107	-
124	23	0.0000158	0.0000098	-
125	20	0.0000137	0.0000085	-
126	31	0.0000213	0.0000132	-
127	17	0.0000117	0.0000072	-
128	18	0.0000124	0.0000077	-
129	24	0.0000165	0.0000102	-
130	18	0.0000124	0.0000077	-
131	16	0.0000110	0.0000068	-
132	24	0.0000165	0.0000102	-
133	20	0.0000137	0.0000085	-
134	20	0.0000137	0.0000085	-
135	12	0.0000082	0.0000051	-
136	21	0.0000144	0.0000090	-
137	12	0.0000082	0.0000051	-
138	20	0.0000137	0.0000085	-
139	12	0.0000082	0.0000051	-
140	13	0.0000089	0.0000055	-
141	10	0.0000069	0.0000043	-
142	16	0.0000110	0.0000068	-
143	20	0.0000137	0.0000085	-
144	17	0.0000117	0.0000072	-
145	18	0.0000124	0.0000077	-
146	14	0.0000096	0.0000060	-
147	20	0.0000137	0.0000085	-
148	13	0.0000089	0.0000055	-
149	20	0.0000137	0.0000085	-
150	14	0.0000096	0.0000060	-
151	14	0.0000096	0.0000060	-
152	12	0.0000082	0.0000051	-
153	18	0.0000124	0.0000077	-
154	12	0.0000082	0.0000051	-
155	15	0.0000103	0.0000064	-
156	17	0.0000117	0.0000072	-
157	14	0.0000096	0.0000060	-
158	18	0.0000124	0.0000077	-
159	13	0.0000089	0.0000055	-
160	9	0.0000062	0.0000038	-
161	12	0.0000082	0.0000051	-
162	13	0.0000089	0.0000055	-
163	10	0.0000069	0.0000043	-
164	16	0.0000110	0.0000068	-
165	18	0.0000124	0.0000077	-
166	18	0.0000124	0.0000077	-
167	8	0.0000055	0.0000034	-
168	6	0.0000041	0.0000026	-
169	11	0.0000075	0.0000047	-
170	11	0.0000075	0.0000047	-
171	11	0.0000075	0.0000047	-
172	12	0.0000082	0.0000051	-
173	12	0.0000082	0.0000051	-
174	12	0.0000082	0.0000051	-
175	11	0.0000075	0.0000047	-
176	8	0.0000055	0.0000034	-
177	8	0.0000055	0.0000034	-
178	15	0.0000103	0.0000064	-
179	9	0.0000062	0.0000038	-
180	18	0.0000124	0.0000077	-
181	9	0.0000062	0.0000038	-
182	8	0.0000055	0.0000034	-
183	6	0.0000041	0.0000026	-
184	7	0.0000048	0.0000030	-
185	4	0.0000027	0.0000017	-
186	5	0.0000034	0.0000021	-
187	5	0.0000034	0.0000021	-
188	10	0.0000069	0.0000043	-
189	12	0.0000082	0.0000051	-
190	11	0.0000075	0.0000047	-
191	9	0.0000062	0.0000038	-
192	10	0.0000069	0.0000043	-
193	6	0.0000041	0.0000026	-
194	10	0.0000069	0.0000043	-
195	7	0.0000048	0.0000030	-
196	8	0.0000055	0.0000034	-
197	11	0.0000075	0.0000047	-
198	4	0.0000027	0.0000017	-
199	9	0.0000062	0.0000038	-
200	6	0.0000041	0.0000026	-
201	5	0.0000034	0.0000021	-
202	4	0.0000027	0.0000017	-
203	7	0.0000048	0.0000030	-
204	8	0.0000055	0.0000034	-
205	4	0.0000027	0.0000017	-
206	5	0.0000034	0.0000021	-
207	8	0.0000055	0.0000034	-
208	7	0.0000048	0.0000030	-
209	10	0.0000069	0.0000043	-
210	9	0.0000062	0.0000038	-
211	7	0.0000048	0.0000030	-
213	8	0.0000055	0.0000034	-
214	6	0.0000041	0.0000026	-
215	5	0.0000034	0.0000021	-
216	5	0.0000034	0.0000021	-
217	11	0.0000075	0.0000047	-
218	7	0.0000048	0.0000030	-
219	6	0.0000041	0.0000026	-
220	2	0.0000014	0.0000009	-
221	3	0.0000021	0.0000013	-
222	6	0.0000041	0.0000026	-
223	7	0.0000048	0.0000030	-
224	7	0.0000048	0.0000030	-
225	7	0.0000048	0.0000030	-
226	5	0.0000034	0.0000021	-
227	3	0.0000021	0.0000013	-
228	4	0.0000027	0.0000017	-
229	3	0.0000021	0.0000013	-
230	5	0.0000034	0.0000021	-
231	3	0.0000021	0.0000013	-
232	2	0.0000014	0.0000009	-
233	11	0.0000075	0.0000047	-
234	2	0.0000014	0.0000009	-
235	6	0.0000041	0.0000026	-
236	5	0.0000034	0.0000021	-
237	5	0.0000034	0.0000021	-
238	6	0.0000041	0.0000026	-
239	4	0.0000027	0.0000017	-
240	4	0.0000027	0.0000017	-
241	3	0.0000021	0.0000013	-
242	2	0.0000014	0.0000009	-
243	5	0.0000034	0.0000021	-
244	3	0.0000021	0.0000013	-
245	6	0.0000041	0.0000026	-
247	10	0.0000069	0.0000043	-
248	1	0.0000007	0.0000004	-
249	3	0.0000021	0.0000013	-
250	3	0.0000021	0.0000013	-
251	1	0.0000007	0.0000004	-
252	7	0.0000048	0.0000030	-
253	6	0.0000041	0.0000026	-
254	3	0.0000021	0.0000013	-
255	6	0.0000041	0.0000026	-
256	3	0.0000021	0.0000013	-
257	3	0.0000021	0.0000013	-
258	1	0.0000007	0.0000004	-
259	3	0.0000021	0.0000013	-
260	2	0.0000014	0.0000009	-
261	3	0.0000021	0.0000013	-
262	6	0.0000041	0.0000026	-
263	3	0.0000021	0.0000013	-
264	3	0.0000021	0.0000013	-
265	4	0.0000027	0.0000017	-
266	6	0.0000041	0.0000026	-
267	1	0.0000007	0.0000004	-
268	7	0.0000048	0.0000030	-
269	3	0.0000021	0.0000013	-
270	5	0.0000034	0.0000021	-
271	2	0.0000014	0.0000009	-
272	2	0.0000014	0.0000009	-
273	3	0.0000021	0.0000013	-
274	2	0.0000014	0.0000009	-
275	6	0.0000041	0.0000026	-
276	3	0.0000021	0.0000013	-
277	2	0.0000014	0.0000009	-
278	4	0.0000027	0.0000017	-
279	4	0.0000027	0.0000017	-
280	3	0.0000021	0.0000013	-
281	3	0.0000021	0.0000013	-
282	7	0.0000048	0.0000030	-
283	3	0.0000021	0.0000013	-
284	1	0.0000007	0.0000004	-
285	5	0.0000034	0.0000021	-
286	1	0.0000007	0.0000004	-
287	5	0.0000034	0.0000021	-
288	2	0.0000014	0.0000009	-
290	1	0.0000007	0.0000004	-
291	1	0.0000007	0.0000004	-
292	6	0.0000041	0.0000026	-
293	4	0.0000027	0.0000017	-
294	1	0.0000007	0.0000004	-
295	3	0.0000021	0.0000013	-
296	2	0.0000014	0.0000009	-
297	2	0.0000014	0.0000009	-
298	3	0.0000021	0.0000013	-
299	2	0.0000014	0.0000009	-
300	3	0.0000021	0.0000013	-
301	3	0.0000021	0.0000013	-
303	2	0.0000014	0.0000009	-
304	1	0.0000007	0.0000004	-
305	2	0.0000014	0.0000009	-
306	2	0.0000014	0.0000009	-
307	4	0.0000027	0.0000017	-
308	2	0.0000014	0.0000009	-
309	3	0.0000021	0.0000013	-
310	4	0.0000027	0.0000017	-
311	4	0.0000027	0.0000017	-
312	1	0.0000007	0.0000004	-
313	1	0.0000007	0.0000004	-
314	2	0.0000014	0.0000009	-
315	3	0.0000021	0.0000013	-
316	1	0.0000007	0.0000004	-
317	3	0.0000021	0.0000013	-
318	1	0.0000007	0.0000004	-
319	6	0.0000041	0.0000026	-
320	3	0.0000021	0.0000013	-
321	5	0.0000034	0.0000021	-
322	3	0.0000021	0.0000013	-
323	2	0.0000014	0.0000009	-
324	9	0.0000062	0.0000038	-
325	3	0.0000021	0.0000013	-
326	2	0.0000014	0.0000009	-
327	3	0.0000021	0.0000013	-
328	3	0.0000021	0.0000013	-
329	4	0.0000027	0.0000017	-
331	1	0.0000007	0.0000004	-
333	3	0.0000021	0.0000013	-
335	3	0.0000021	0.0000013	-
336	1	0.0000007	0.0000004	-
337	1	0.0000007	0.0000004	-
338	2	0.0000014	0.0000009	-
339	5	0.0000034	0.0000021	-
340	2	0.0000014	0.0000009	-
341	3	0.0000021	0.0000013	-
343	1	0.0000007	0.0000004	-
344	1	0.0000007	0.0000004	-
347	2	0.0000014	0.0000009	-
348	1	0.0000007	0.0000004	-
349	3	0.0000021	0.0000013	-
350	1	0.0000007	0.0000004	-
351	1	0.0000007	0.0000004	-
352	1	0.0000007	0.0000004	-
353	3	0.0000021	0.0000013	-
354	4	0.0000027	0.0000017	-
355	2	0.0000014	0.0000009	-
356	1	0.0000007	0.0000004	-
357	2	0.0000014	0.0000009	-
358	3	0.0000021	0.0000013	-
359	2	0.0000014	0.0000009	-
360	1	0.0000007	0.0000004	-
361	1	0.0000007	0.0000004	-
362	2	0.0000014	0.0000009	-
363	1	0.0000007	0.0000004	-
365	1	0.0000007	0.0000004	-
366	5	0.0000034	0.0000021	-
367	1	0.0000007	0.0000004	-
368	3	0.0000021	0.0000013	-
369	1	0.0000007	0.0000004	-
373	4	0.0000027	0.0000017	-
374	1	0.0000007	0.0000004	-
375	1	0.0000007	0.0000004	-
376	3	0.0000021	0.0000013	-
377	1	0.0000007	0.0000004	-
378	3	0.0000021	0.0000013	-
379	1	0.0000007	0.0000004	-
380	2	0.0000014	0.0000009	-
381	1	0.0000007	0.0000004	-
383	3	0.0000021	0.0000013	-
384	2	0.0000014	0.0000009	-
385	5	0.0000034	0.0000021	-
386	3	0.0000021	0.0000013	-
387	1	0.0000007	0.0000004	-
388	1	0.0000007	0.0000004	-
389	1	0.0000007	0.0000004	-
390	1	0.0000007	0.0000004	-
391	1	0.0000007	0.0000004	-
392	3	0.0000021	0.0000013	-
393	2	0.0000014	0.0000009	-
395	2	0.0000014	0.0000009	-
397	1	0.0000007	0.0000004	-
398	1	0.0000007	0.0000004	-
399	3	0.0000021	0.0000013	-
401	1	0.0000007	0.0000004	-
402	1	0.0000007	0.0000004	-
403	1	0.0000007	0.0000004	-
404	2	0.0000014	0.0000009	-
405	2	0.0000014	0.0000009	-
406	2	0.0000014	0.0000009	-
407	2	0.0000014	0.0000009	-
408	1	0.0000007	0.0000004	-
409	1	0.0000007	0.0000004	-
410	2	0.0000014	0.0000009	-
412	1	0.0000007	0.0000004	-
413	2	0.0000014	0.0000009	-
414	2	0.0000014	0.0000009	-
415	1	0.0000007	0.0000004	-
416	1	0.0000007	0.0000004	-
417	1	0.0000007	0.0000004	-
418	2	0.0000014	0.0000009	-
419	3	0.0000021	0.0000013	-
420	1	0.0000007	0.0000004	-
421	2	0.0000014	0.0000009	-
422	2	0.0000014	0.0000009	-
423	3	0.0000021	0.0000013	-
424	1	0.0000007	0.0000004	-
425	2	0.0000014	0.0000009	-
426	1	0.0000007	0.0000004	-
427	2	0.0000014	0.0000009	-
428	1	0.0000007	0.0000004	-
430	1	0.0000007	0.0000004	-
431	2	0.0000014	0.0000009	-
433	2	0.0000014	0.0000009	-
434	4	0.0000027	0.0000017	-
435	3	0.0000021	0.0000013	-
436	1	0.0000007	0.0000004	-
437	1	0.0000007	0.0000004	-
438	1	0.0000007	0.0000004	-
439	1	0.0000007	0.0000004	-
440	2	0.0000014	0.0000009	-
441	1	0.0000007	0.0000004	-
443	1	0.0000007	0.0000004	-
446	2	0.0000014	0.0000009	-
447	1	0.0000007	0.0000004	-
448	2	0.0000014	0.0000009	-
450	2	0.0000014	0.0000009	-
452	3	0.0000021	0.0000013	-
453	1	0.0000007	0.0000004	-
455	1	0.0000007	0.0000004	-
458	2	0.0000014	0.0000009	-
459	1	0.0000007	0.0000004	-
460	1	0.0000007	0.0000004	-
463	1	0.0000007	0.0000004	-
464	1	0.0000007	0.0000004	-
465	2	0.0000014	0.0000009	-
466	1	0.0000007	0.0000004	-
467	1	0.0000007	0.0000004	-
469	1	0.0000007	0.0000004	-
471	3	0.0000021	0.0000013	-
472	1	0.0000007	0.0000004	-
473	1	0.0000007	0.0000004	-
476	2	0.0000014	0.0000009	-
478	1	0.0000007	0.0000004	-
479	1	0.0000007	0.0000004	-
480	1	0.0000007	0.0000004	-
481	2	0.0000014	0.0000009	-
485	1	0.0000007	0.0000004	-
486	1	0.0000007	0.0000004	-
487	1	0.0000007	0.0000004	-
489	2	0.0000014	0.0000009	-
490	1	0.0000007	0.0000004	-
493	1	0.0000007	0.0000004	-
496	2	0.0000014	0.0000009	-
497	1	0.0000007	0.0000004	-
500	1	0.0000007	0.0000004	-
501	1	0.0000007	0.0000004	-
504	2	0.0000014	0.0000009	-
505	1	0.0000007	0.0000004	-
506	1	0.0000007	0.0000004	-
507	1	0.0000007	0.0000004	-
510	2	0.0000014	0.0000009	-
511	2	0.0000014	0.0000009	-
512	2	0.0000014	0.0000009	-
513	2	0.0000014	0.0000009	-
516	1	0.0000007	0.0000004	-
517	1	0.0000007	0.0000004	-
518	1	0.0000007	0.0000004	-
519	3	0.0000021	0.0000013	-
524	1	0.0000007	0.0000004	-
527	2	0.0000014	0.0000009	-
528	2	0.0000014	0.0000009	-
530	1	0.0000007	0.0000004	-
531	2	0.0000014	0.0000009	-
532	1	0.0000007	0.0000004	-
539	1	0.0000007	0.0000004	-
540	1	0.0000007	0.0000004	-
541	1	0.0000007	0.0000004	-
543	2	0.0000014	0.0000009	-
545	3	0.0000021	0.0000013	-
547	1	0.0000007	0.0000004	-
550	2	0.0000014	0.0000009	-
552	1	0.0000007	0.0000004	-
553	1	0.0000007	0.0000004	-
554	1	0.0000007	0.0000004	-
555	1	0.0000007	0.0000004	-
561	1	0.0000007	0.0000004	-
563	1	0.0000007	0.0000004	-
565	2	0.0000014	0.0000009	-
566	1	0.0000007	0.0000004	-
567	1	0.0000007	0.0000004	-
568	1	0.0000007	0.0000004	-
570	1	0.0000007	0.0000004	-
572	1	0.0000007	0.0000004	-
573	1	0.0000007	0.0000004	-
575	1	0.0000007	0.0000004	-
577	1	0.0000007	0.0000004	-
578	1	0.0000007	0.0000004	-
579	2	0.0000014	0.0000009	-
580	1	0.0000007	0.0000004	-
581	2	0.0000014	0.0000009	-
583	1	0.0000007	0.0000004	-
585	2	0.0000014	0.0000009	-
587	4	0.0000027	0.0000017	-
589	1	0.0000007	0.0000004	-
592	1	0.0000007	0.0000004	-
593	2	0.0000014	0.0000009	-
595	1	0.0000007	0.0000004	-
597	1	0.0000007	0.0000004	-
599	1	0.0000007	0.0000004	-
600	1	0.0000007	0.0000004	-
601	1	0.0000007	0.0000004	-
603	1	0.0000007	0.0000004	-
605	3	0.0000021	0.0000013	-
606	1	0.0000007	0.0000004	-
608	1	0.0000007	0.0000004	-
609	3	0.0000021	0.0000013	-
610	2	0.0000014	0.0000009	-
611	3	0.0000021	0.0000013	-
613	1	0.0000007	0.0000004	-
615	1	0.0000007	0.0000004	-
616	2	0.0000014	0.0000009	-
620	3	0.0000021	0.0000013	-
622	1	0.0000007	0.0000004	-
624	1	0.0000007	0.0000004	-
626	1	0.0000007	0.0000004	-
627	1	0.0000007	0.0000004	-
630	1	0.0000007	0.0000004	-
634	1	0.0000007	0.0000004	-
635	1	0.0000007	0.0000004	-
638	1	0.0000007	0.0000004	-
639	1	0.0000007	0.0000004	-
642	2	0.0000014	0.0000009	-
643	1	0.0000007	0.0000004	-
651	1	0.0000007	0.0000004	-
654	1	0.0000007	0.0000004	-
656	2	0.0000014	0.0000009	-
658	1	0.0000007	0.0000004	-
659	1	0.0000007	0.0000004	-
662	1	0.0000007	0.0000004	-
669	3	0.0000021	0.0000013	-
672	1	0.0000007	0.0000004	-
676	2	0.0000014	0.0000009	-
678	1	0.0000007	0.0000004	-
679	1	0.0000007	0.0000004	-
680	1	0.0000007	0.0000004	-
681	1	0.0000007	0.0000004	-
683	1	0.0000007	0.0000004	-
687	1	0.0000007	0.0000004	-
691	1	0.0000007	0.0000004	-
693	1	0.0000007	0.0000004	-
697	1	0.0000007	0.0000004	-
705	2	0.0000014	0.0000009	-
708	1	0.0000007	0.0000004	-
709	1	0.0000007	0.0000004	-
710	1	0.0000007	0.0000004	-
711	1	0.0000007	0.0000004	-
714	2	0.0000014	0.0000009	-
716	1	0.0000007	0.0000004	-
722	1	0.0000007	0.0000004	-
727	2	0.0000014	0.0000009	-
730	2	0.0000014	0.0000009	-
731	2	0.0000014	0.0000009	-
733	1	0.0000007	0.0000004	-
735	1	0.0000007	0.0000004	-
737	1	0.0000007	0.0000004	-
738	1	0.0000007	0.0000004	-
739	2	0.0000014	0.0000009	-
753	2	0.0000014	0.0000009	-
756	1	0.0000007	0.0000004	-
759	1	0.0000007	0.0000004	-
763	2	0.0000014	0.0000009	-
767	1	0.0000007	0.0000004	-
768	1	0.0000007	0.0000004	-
771	1	0.0000007	0.0000004	-
774	1	0.0000007	0.0000004	-
775	1	0.0000007	0.0000004	-
780	1	0.0000007	0.0000004	-
782	1	0.0000007	0.0000004	-
783	1	0.0000007	0.0000004	-
784	1	0.0000007	0.0000004	-
786	1	0.0000007	0.0000004	-
788	1	0.0000007	0.0000004	-
799	1	0.0000007	0.0000004	-
801	1	0.0000007	0.0000004	-
808	1	0.0000007	0.0000004	-
809	1	0.0000007	0.0000004	-
810	1	0.0000007	0.0000004	-
811	1	0.0000007	0.0000004	-
812	1	0.0000007	0.0000004	-
826	2	0.0000014	0.0000009	-
830	2	0.0000014	0.0000009	-
832	2	0.0000014	0.0000009	-
840	1	0.0000007	0.0000004	-
841	2	0.0000014	0.0000009	-
844	1	0.0000007	0.0000004	-
847	1	0.0000007	0.0000004	-
851	1	0.0000007	0.0000004	-
854	2	0.0000014	0.0000009	-
855	1	0.0000007	0.0000004	-
858	1	0.0000007	0.0000004	-
859	1	0.0000007	0.0000004	-
871	1	0.0000007	0.0000004	-
873	1	0.0000007	0.0000004	-
875	2	0.0000014	0.0000009	-
884	1	0.0000007	0.0000004	-
888	1	0.0000007	0.0000004	-
898	2	0.0000014	0.0000009	-
907	1	0.0000007	0.0000004	-
914	1	0.0000007	0.0000004	-
915	1	0.0000007	0.0000004	-
922	1	0.0000007	0.0000004	-
926	1	0.0000007	0.0000004	-
929	1	0.0000007	0.0000004	-
935	1	0.0000007	0.0000004	-
937	1	0.0000007	0.0000004	-
938	2	0.0000014	0.0000009	-
939	1	0.0000007	0.0000004	-
942	1	0.0000007	0.0000004	-
946	1	0.0000007	0.0000004	-
950	1	0.0000007	0.0000004	-
954	1	0.0000007	0.0000004	-
960	1	0.0000007	0.0000004	-
965	1	0.0000007	0.0000004	-
967	1	0.0000007	0.0000004	-
969	1	0.0000007	0.0000004	-
970	1	0.0000007	0.0000004	-
971	1	0.0000007	0.0000004	-
973	1	0.0000007	0.0000004	-
979	1	0.0000007	0.0000004	-
988	1	0.0000007	0.0000004	-
990	2	0.0000014	0.0000009	-
996	1	0.0000007	0.0000004	-
999	1	0.0000007	0.0000004	-
1005	1	0.0000007	0.0000004	-
1014	1	0.0000007	0.0000004	-
1036	1	0.0000007	0.0000004	-
1048	1	0.0000007	0.0000004	-
1049	1	0.0000007	0.0000004	-
1061	1	0.0000007	0.0000004	-
1073	1	0.0000007	0.0000004	-
1079	1	0.0000007	0.0000004	-
1085	1	0.0000007	0.0000004	-
1102	1	0.0000007	0.0000004	-
1118	1	0.0000007	0.0000004	-
1121	1	0.0000007	0.0000004	-
1127	1	0.0000007	0.0000004	-
1140	1	0.0000007	0.0000004	-
1142	1	0.0000007	0.0000004	-
1143	1	0.0000007	0.0000004	-
1161	1	0.0000007	0.0000004	-
1173	1	0.0000007	0.0000004	-
1174	1	0.0000007	0.0000004	-
1175	1	0.0000007	0.0000004	-
1182	2	0.0000014	0.0000009	-
1209	2	0.0000014	0.0000009	-
1218	1	0.0000007	0.0000004	-
1227	1	0.0000007	0.0000004	-
1249	1	0.0000007	0.0000004	-
1261	1	0.0000007	0.0000004	-
1263	1	0.0000007	0.0000004	-
1273	1	0.0000007	0.0000004	-
1278	1	0.0000007	0.0000004	-
1295	2	0.0000014	0.0000009	-
1296	1	0.0000007	0.0000004	-
1298	2	0.0000014	0.0000009	-
1302	1	0.0000007	0.0000004	-
1312	1	0.0000007	0.0000004	-
1316	1	0.0000007	0.0000004	-
1324	1	0.0000007	0.0000004	-
1340	1	0.0000007	0.0000004	-
1342	1	0.0000007	0.0000004	-
1351	1	0.0000007	0.0000004	-
1352	1	0.0000007	0.0000004	-
1354	1	0.0000007	0.0000004	-
1367	1	0.0000007	0.0000004	-
1378	1	0.0000007	0.0000004	-
1380	1	0.0000007	0.0000004	-
1382	1	0.0000007	0.0000004	-
1385	1	0.0000007	0.0000004	-
1390	1	0.0000007	0.0000004	-
1394	1	0.0000007	0.0000004	-
1399	1	0.0000007	0.0000004	-
1423	1	0.0000007	0.0000004	-
1432	1	0.0000007	0.0000004	-
1433	1	0.0000007	0.0000004	-
1440	1	0.0000007	0.0000004	-
1460	1	0.0000007	0.0000004	-
1469	1	0.0000007	0.0000004	-
1472	1	0.0000007	0.0000004	-
1477	1	0.0000007	0.0000004	-
1483	1	0.0000007	0.0000004	-
1493	1	0.0000007	0.0000004	-
